1701040002,1701040,KETAPING
1701040003,1701040,TERULUNG
1701040004,1701040,MANGGUL
1701040005,1701040,TANJUNG BESAR
1701040030,1701040,LUBUK SIRIH ULU
1701040031,1701040,LUBUK SIRIH ILIR
1701040032,1701040,TANJUNG RAMAN
1701040033,1701040,KAYU KUNYIT
1701040050,1701040,KOTA PADANG
1701040051,1701040,MELAO
1701040052,1701040,GUNUNG SAKTI
1701040053,1701040,JERANGLAH RENDAH
1701040054,1701040,JERANGLAH TINGGI
1701040055,1701040,KEMBANG AYUN
1701040056,1701040,TAMBANGAN
1701040057,1701040,GUNUNG KEMBANG
1701040058,1701040,PADANG MANIS
1701040059,1701040,PADANG PANDAN
1701041006,1701041,KAMPUNG BARU
1701041007,1701041,PAGAR DEWA
1701041008,1701041,PASAR BARU
1701041013,1701041,KOTA MEDAN
1701041014,1701041,GUNUNG AYU
1701041015,1701041,PADANG NIUR
1701041016,1701041,TEBAT KUBU
1701041017,1701041,GELUMBANG
1701041018,1701041,PADANG KAPUK
1701041019,1701041,IBUL
1701041020,1701041,PADANG BERANGIN
1701042012,1701042,LAWANG AGUNG
1701042013,1701042,DURIAN SEBATANG
1701042014,1701042,PAJAR BULAN
1701042015,1701042,TANJUNG BESAR
1701042016,1701042,MUARA TIGA
1701042017,1701042,SUKANANTI
1701042018,1701042,TANJUNG NEGARA
1701042019,1701042,TANJUNG ALAM
1701042020,1701042,KEBAN AGUNG III
1701042021,1701042,KEBAN AGUNG II
1701042022,1701042,KEBAN AGUNG I
1701042023,1701042,PALAK SIRING
1701042024,1701042,BUMI AGUNG
1701042025,1701042,RANTAU SIALANG
1701042026,1701042,BATU AMPAR
1701042027,1701042,MUARA TIGA ILIR
1701042028,1701042,NANTI AGUNG
1701042029,1701042,KARANG AGUNG
1701042030,1701042,LUBUK RESAM
1701043001,1701043,TUMBUK TEBING
1701043002,1701043,PADANG BURNAI
1701043003,1701043,GUNUNG KAYO
1701043004,1701043,GINDOSULI
1701043005,1701043,TALANG INDAH
1701043006,1701043,TANJUNG TEBAT
1701043007,1701043,PADANG JAWI
1701043008,1701043,TANJUNG AUR
1701043009,1701043,PADANG NIBUNG
1701043010,1701043,KURIPAN
1701044001,1701044,PASAR BAWAH
1701044002,1701044,GUNUNG MESIR
1701044003,1701044,KETAPANG BESAR
1701044004,1701044,PADANG SIALANG
1701044005,1701044,BELAKANG GEDUNG
1701044006,1701044,PASAR MULIA
1701044007,1701044,BATU LAMBANG
1701044008,1701044,BATU KUNING
1701044009,1701044,TANJUNG MULIA
1701045001,1701045,LUBUK LADUNG
1701045002,1701045,AIR SULAU
1701045003,1701045,SUKAJAYA
1701045004,1701045,SUKARAJA
1701045005,1701045,LIMUS
1701045006,1701045,PENINDAIAN
1701045007,1701045,PADANG BINDU
1701045008,1701045,NANJUNGAN
1701045009,1701045,PAGAR BANYU
1701045010,1701045,SUKARAMI
1701045011,1701045,BETUNGAN
1701045012,1701045,KARANG CAYA
1701050001,1701050,MUARA PULUTAN
1701050002,1701050,MUARA PAYANG
1701050003,1701050,DURIAN SEGINIM
1701050004,1701050,BANDING AGUNG
1701050005,1701050,PAJAR BULAN
1701050006,1701050,PADANG LEBAR
1701050007,1701050,DUSUN TENGAH
1701050008,1701050,PADANG SIRING
1701050009,1701050,TANJUNG MENANG
1701050010,1701050,GUNUNG AYU
1701050011,1701050,KOTA BUMI BARU
1701050012,1701050,SINDANG BULAN
1701050013,1701050,SUKARAJA
1701050014,1701050,PASAR BARU
1701050015,1701050,DARAT SAWAH
1701050016,1701050,KOTA AGUNG
1701050017,1701050,MUARA DANAU
1701050018,1701050,BABATAN ILIR
1701050019,1701050,BABATAN ULU
1701050020,1701050,TANJUNG AGUNG
1701050021,1701050,DUSUN BARU
1701050022,1701050,DARAT SAWAH ULU
1701051001,1701051,SUKA BANDUNG
1701051002,1701051,PENANDINGAN
1701051003,1701051,MARAS
1701051004,1701051,KEBAN JATI
1701051005,1701051,TANJUNG BERINGIN
1701051006,1701051,PALAK BENGKERUNG
1701051007,1701051,SUKA NEGERI
1701051008,1701051,PINO BARU
1701051009,1701051,SUKA MAJU
1701051010,1701051,SUKARAMI
1701060013,1701060,PADANG LEBAR
1701060014,1701060,ANGGUT
1701060015,1701060,GEDUNG AGUNG
1701060016,1701060,TANJUNG ERAN
1701060017,1701060,TANJUNG AUR I
1701060018,1701060,PUDING
1701060019,1701060,AIR UMBAN
1701060020,1701060,MASAT
1701060024,1701060,ULAK LEBAR
1701060025,1701060,SEBILO
1701060026,1701060,GANJUH
1701060027,1701060,KOTA BUMI
1701060028,1701060,BATU BANDUNG
1701060029,1701060,BERINGIN DATAR
1701060030,1701060,PADANG MUMPO
1701060031,1701060,PADANG TAMBAK
1701061001,1701061,TANGGO RASO
1701061002,1701061,AIR KEMANG
1701061003,1701061,BANDUNG AYU
1701061004,1701061,TUNGKAL I
1701061005,1701061,TALANG PADANG
1701061006,1701061,PASAR PINO
1701061007,1701061,SELALI
1701061008,1701061,NANJUNGAN
1701061009,1701061,TUNGKAL II
1701061010,1701061,NAPAL MELINTANG
1701061011,1701061,SERANG BULAN
1701061012,1701061,KEMANG MANIS
1701061013,1701061,SUKA BANDUNG
1701061014,1701061,CINTO MANDI
1701061015,1701061,PAGAR GADING
1701061016,1701061,KEMBANG SERI
1701061017,1701061,KARANG CAYO
1701061018,1701061,TANJUNG AUR II
1701061019,1701061,PADANG BERIANG
1701061020,1701061,PADANG SERASAN
1701061022,1701061,TELAGA DALAM
1701061023,1701061,UPT TANJUNG AUR II
1701062001,1701062,BATU PANCO
1701062002,1701062,BATU KUNING
1701062003,1701062,BANDAR AGUNG
1701062004,1701062,MERAMBUNG
1701062005,1701062,SIMPANG PINO
1701062006,1701062,TALANG TINGGI
1701062007,1701062,KEBAN JATI
1701062008,1701062,LUBUK TAPI
1701062009,1701062,KAYU AJARAN
1701062010,1701062,AIR TENAM
1702020007,1702020,DURIAN MAS
1702020008,1702020,LUBUK MUMPO
1702020009,1702020,DUSUN BARU
1702020010,1702020,BEDENG SS
1702020011,1702020,KOTA PADANG
1702020012,1702020,SUKA RAMI
1702020013,1702020,TABA ANYAR
1702020014,1702020,DERATI
1702020015,1702020,KOTA PADANG BARU
1702020016,1702020,TANJUNG GELANG
1702021001,1702021,MERANTAU
1702021002,1702021,PERIANG
1702021003,1702021,BALAI BUTAR
1702021004,1702021,LUBUK BELIMBING I
1702021005,1702021,SARI PULAU
1702021006,1702021,SUKA MERINDU
1702021007,1702021,LUBUK BELIMBING II
1702021008,1702021,LUBUK BINGIN BARU
1702021009,1702021,LUBUK TUNJUNG
1702021010,1702021,SUKA KARYA
1702030028,1702030,KARANG BARU
1702030029,1702030,GURU AGUNG
1702030031,1702030,TANJUNG SANAI I
1702030032,1702030,TANJUNG SANAI II
1702030033,1702030,ULAK TANDING
1702030034,1702030,PASAR PADANG ULAK TANDING
1702030035,1702030,TABA TINGGI
1702030036,1702030,MUARA TELITA
1702030037,1702030,T A K T O I
1702030040,1702030,UJAN PANAS
1702030041,1702030,KASIE KASUBUN
1702030042,1702030,BELUMAI II
1702030043,1702030,BELUMAI I
1702030044,1702030,BUKIT BATU
1702030045,1702030,AIR KATI
1702031001,1702031,SINDANG JAYA
1702031006,1702031,SINDANG JATI
1702031007,1702031,AIR DINGIN
1702031008,1702031,KAYU MANIS
1702031011,1702031,BERINGIN TIGA
1702031012,1702031,PELALO
1702031013,1702031,BELITAR MUKA
1702031014,1702031,BELITAR SEBERANG
1702031015,1702031,TANJUNG AUR
1702031016,1702031,CAHAYA NEGERI
1702032001,1702032,KEPALA CURUP
1702032002,1702032,SIMPANG BELITI
1702032003,1702032,KAMPUNG JERUK
1702032004,1702032,AIR APO
1702032005,1702032,TABA PADANG
1702033001,1702033,A P U R
1702033002,1702033,LAWANG AGUNG
1702033003,1702033,LUBUK ALAI
1702033004,1702033,KARANG PINANG
1702033005,1702033,TANJUNG AGUNG
1702033006,1702033,PENGAMBANG
1702033007,1702033,J A B I
1702033008,1702033,TANJUNG HERAN
1702033009,1702033,AIR NAU
1702034001,1702034,IV SUKU MENANTI
1702034002,1702034,BENGKO
1702034003,1702034,SINAR GUNUNG
1702034004,1702034,AIR RUSA
1702034005,1702034,TALANG BELITAR
1702034006,1702034,WARUNG POJOK
1702040012,1702040,AIR PUTIH LAMA
1702040013,1702040,AIR RAMBAI
1702040014,1702040,DWI TUNGGAL
1702040015,1702040,ADIREJO
1702040016,1702040,TALANG BENIH
1702040017,1702040,JALAN BARU
1702040018,1702040,PASAR BARU
1702040019,1702040,PASAR TENGAH
1702040061,1702040,TIMBUL REJO
1702041001,1702041,BARU MANIS
1702041002,1702041,AIR PIKAT
1702041003,1702041,TEBAT TENONG DALAM
1702041004,1702041,SUKA RAMI
1702041007,1702041,PAGAR GUNUNG
1702041008,1702041,AIR MUNDU
1702041009,1702041,KAMPUNG SAJAD
1702041010,1702041,SENTRAL BARU
1702041011,1702041,KAMPUNG MELAYU
1702041013,1702041,SELAMAT SUDIARJO
1702041014,1702041,PURWODADI
1702041015,1702041,TEBAT PULAU
1702042001,1702042,AIR MELES ATAS
1702042002,1702042,CAWANG BARU
1702042003,1702042,CAWANG LAMA
1702042004,1702042,KAYU MANIS
1702042005,1702042,SIMPANG NANGKA
1702042006,1702042,KAMPUNG BARU
1702042007,1702042,SUBAN AYAM
1702042008,1702042,AIR PUTIH KALI BANDUNG
1702042009,1702042,AIR DUKU
1702042010,1702042,SAMBIREJO
1702042011,1702042,SUMBER BENING
1702042012,1702042,SUMBER URIP
1702042013,1702042,KARANG JAYA
1702042014,1702042,KALI PADANG
1702042015,1702042,TALANG LAHAT
1702042016,1702042,MOJOREJO
1702043001,1702043,AIR LANANG
1702043002,1702043,TANJUNG DALAM
1702043003,1702043,TURAN BARU
1702043004,1702043,PUNGGUK LALANG
1702043005,1702043,WATAS MARGA
1702043006,1702043,LUBUK UBAR
1702043007,1702043,RIMBO RECAP
1702043008,1702043,SUKA MARGA
1702043009,1702043,TEMPEL REJO
1702043010,1702043,AIR PUTIH BARU
1702043011,1702043,DESA TELADAN
1702044001,1702044,KEPALA SIRING
1702044002,1702044,TALANG RIMBO BARU
1702044003,1702044,TALANG RIMBO LAMA
1702044004,1702044,BANYUMAS
1702044005,1702044,PELABUHAN BARU
1702044006,1702044,KAMPUNG JAWA
1702044007,1702044,SIDOREJO
1702044008,1702044,AIR BANG
1702044009,1702044,AIR MERAH
1702044010,1702044,BATU GALING
1702045001,1702045,BANDUNG MARGA
1702045002,1702045,PAL VII
1702045003,1702045,SUMBER REJO TRANSAD
1702045004,1702045,PAL 100
1702045005,1702045,KARANG ANYAR PAL VIII
1702045006,1702045,TEBAT TENONG LUAR
1702045007,1702045,BANGUN JAYA
1702045008,1702045,AIR BENING
1702045009,1702045,BABAKAN BARU
1702045010,1702045,DATARAN TAPUS
1702046001,1702046,DUSUN CURUP
1702046002,1702046,BATU DEWA
1702046003,1702046,TUNAS HARAPAN
1702046004,1702046,PERBO
1702046005,1702046,BATU PANCO
1702046006,1702046,SUKA DATANG
1702046007,1702046,LUBUK KEMBANG
1702046008,1702046,DUSUN SAWAH
1702046009,1702046,TABARENAH
1702046010,1702046,DESA PAHLAWAN
1702046011,1702046,TASIK MALAYA
1702046012,1702046,TANJUNG BERINGIN
1702046013,1702046,KOTA PAGU
1702046014,1702046,SEGURING
1702047001,1702047,DUKU ULU
1702047002,1702047,DUKU ILIR
1702047003,1702047,KAMPUNG DELIMA
1702047004,1702047,KESAMBE LAMA
1702047005,1702047,KARANG ANYAR
1702047006,1702047,AIR MELES BAWAH
1702047007,1702047,SUKARAJA
1702047008,1702047,KESAMBE BARU
1702047009,1702047,TALANG ULU
1703010001,1703010,BANJAR SARI
1703010002,1703010,MEOK
1703010003,1703010,APOHO
1703010004,1703010,MALAKONI
1703010005,1703010,KAANA
1703010006,1703010,KAHYAPU
1703050033,1703050,TANJUNG PUTUS
1703050036,1703050,TALANG JAMBU
1703050037,1703050,TEBAT PACUR
1703050039,1703050,PENYANGKAK
1703050040,1703050,MAGELANG
1703050041,1703050,TALANG CURUP
1703050042,1703050,BANYUMAS BARU
1703050043,1703050,SERUMBUNG
1703050044,1703050,LUBUK DURIAN
1703050045,1703050,SALAM HARJO
1703050046,1703050,BANYUMAS LAMA
1703050047,1703050,TALANG PASAK
1703050048,1703050,JOGYA BARU
1703050049,1703050,PERBO
1703050050,1703050,SIMPANG KETENONG
1703050051,1703050,AUR GADING
1703050052,1703050,LUBUK JALE
1703050053,1703050,KEDU BARU
1703051001,1703051,TEPI LAUT
1703051002,1703051,PASAR BEMBAH
1703051003,1703051,PASAR KERKAP
1703051004,1703051,AIR NAPAL
1703051005,1703051,TALANG JARANG
1703051006,1703051,TALANG KERING
1703051007,1703051,SELUBUK
1703051008,1703051,PASAR TEBAT
1703051009,1703051,LUBUK TANJUNG
1703051010,1703051,PASAR PALIK
1703051011,1703051,TEBING KANDANG
1703051012,1703051,DUSUN PUKUR
1703052001,1703052,KOTA AGUNG
1703052002,1703052,TALANG LEMBAK
1703052003,1703052,TALANG RENAH
1703052004,1703052,SUNGAI PURA
1703052005,1703052,TANJUNG GENTING
1703052006,1703052,LUBUK BALAM
1703052007,1703052,DATAR MACANG
1703052010,1703052,GENTING PERANGKAP
1703052011,1703052,TALANG BARU GINTING
1703052012,1703052,TALANG PUNGGUK
1703052013,1703052,KERTAPATI
1703052014,1703052,TALANG GINTING
1703052015,1703052,TANJUNG KARET
1703052016,1703052,DUSUN CURUP
1703052017,1703052,PENYANGKAK
1703053001,1703053,KOTA LEKAT ILIR
1703053002,1703053,AIR BANAI
1703053003,1703053,AIR BAUS II
1703053004,1703053,AIR BAUS I
1703053005,1703053,TABA PADANG KOL
1703053006,1703053,TABA PADANG REJANG
1703053007,1703053,PADANG BENDAR
1703053008,1703053,BATU LAYANG
1703053009,1703053,BATU RAJA KOL
1703053010,1703053,BATU RAJA REJANG
1703053011,1703053,BATU ROTO
1703053012,1703053,PEMATANG BALAM
1703053013,1703053,TALANG RENDAH
1703053014,1703053,SUMBEREJO
1703053015,1703053,KOTA LEKAT MUDIK
1703054001,1703054,LUBUK SEMATUNG
1703054002,1703054,KETAPI
1703054003,1703054,SAWANG LEBAR
1703054004,1703054,LUBUK GADING
1703054005,1703054,SAWANG LEBAR ILIR
1703054006,1703054,LUBUK PENDAM
1703054007,1703054,ALUNDDUA
1703054008,1703054,SENGKUANG
1703054009,1703054,TANJUNG AGUNG
1703054010,1703054,PADANG SEPAN
1703060010,1703060,TALANG DENAU
1703060011,1703060,GUNUNG SELAN
1703060012,1703060,GUNUNG AGUNG
1703060013,1703060,RAMA AGUNG
1703060014,1703060,GUNUNG ALAM
1703060015,1703060,SIDO URIP
1703060016,1703060,DATAR RUYUNG
1703060017,1703060,TANJUNG RAMAN
1703060020,1703060,LUBUK SAUNG
1703060021,1703060,KARANG SUCI
1703060022,1703060,PURWODADI
1703060023,1703060,KARANG ANYAR II
1703060024,1703060,KARANG ANYAR
1703060025,1703060,TABA TEMBILANG
1703060026,1703060,SENALI
1703060027,1703060,KURO TIDUR
1703061001,1703061,GARDU
1703061002,1703061,PAGAR BANYU
1703061003,1703061,PEMATANG SAPANG
1703061004,1703061,SUMBER AGUNG
1703061005,1703061,SIDODADI
1703061006,1703061,GUNUNG BESAR
1703061007,1703061,KALI
1703061008,1703061,PAGAR RUYUNG
1703061009,1703061,AIR MERAH
1703061010,1703061,TEBING KANING
1703061011,1703061,KEMUMU
1703061012,1703061,KALAI DUAI
1703070001,1703070,PASAR LAIS
1703070002,1703070,PAL TIGA PULUH
1703070003,1703070,JAGO BAYO
1703070004,1703070,LUBUK LESUNG
1703070005,1703070,DUSUN RAJA
1703070006,1703070,DURIAN DAUN
1703070007,1703070,AIR PADANG
1703070008,1703070,DATAR LEBAR
1703070010,1703070,TALANG RASAU
1703070011,1703070,LUBUK GEDANG
1703070012,1703070,SUKA LANGU
1703070026,1703070,TABA BARU
1703070027,1703070,KALBANG
1703071001,1703071,SERANGAI
1703071002,1703071,SELOLONG
1703071003,1703071,AIRLAKOK
1703071004,1703071,BINTUNAN
1703071005,1703071,SUKAMARGA
1703071006,1703071,BATIK NAU
1703071007,1703071,PAGAR RUYUNG
1703071008,1703071,DURIAN AMPARAN
1703071009,1703071,SAMBAN JAYA
1703071010,1703071,MANINJAU
1703071011,1703071,AIR MENGANYAU
1703071012,1703071,TABA KELINTANG
1703071013,1703071,ULAK TANDING
1703071014,1703071,SEKIAU
1703071015,1703071,SEBERANG TUNGGAL
1703072001,1703072,SUKAMAKMUR
1703072002,1703072,TANJUNG ANOM
1703072003,1703072,GIRI MULYA
1703072004,1703072,WONOHARJO
1703072005,1703072,RENA JAYA
1703072006,1703072,SUKA MULYA
1703073001,1703073,TANJUNG AUR
1703073002,1703073,MESIGIT
1703073003,1703073,RETES
1703073004,1703073,LUBUK MUMPO
1703073005,1703073,TALANG ULU
1703073006,1703073,KEMBANG MANIS
1703073007,1703073,SUKARAMI
1703073008,1703073,TELUK AJANG
1703073009,1703073,DUSUN BALAM
1703073010,1703073,PADANG KALA
1703080001,1703080,LUBUK BANYAU
1703080002,1703080,SIDO MUKTI
1703080003,1703080,ARGA MULYA
1703080004,1703080,TALANG TUA
1703080005,1703080,PADANG JAYA
1703080006,1703080,TANJUNG HARAPAN
1703080007,1703080,MARGA SAKTI
1703080008,1703080,MARGA JAYA
1703080009,1703080,TANAH HITAM
1703080010,1703080,TAMBAK REJO
1703080011,1703080,TANAH TINGGI
1703080012,1703080,SIDO LUHUR
1703090001,1703090,URAI
1703090007,1703090,PASAR KETAHUN
1703090008,1703090,GIRI KENCANA
1703090011,1703090,KUALA LELANGI
1703090012,1703090,TALANG BARU
1703090013,1703090,DUSUN RAJA
1703090014,1703090,FAJAR BARU
1703090015,1703090,LUBUK MINDAI
1703090024,1703090,MELATI HARJO
1703090025,1703090,BUKIT INDAH
1703090026,1703090,BUKIT TINGGI
1703091006,1703091,TANJUNG ALAI
1703091007,1703091,DUSUN JABI
1703091008,1703091,NAPAL PUTIH
1703091013,1703091,LEBONG TANDAI
1703091014,1703091,AIR TENANG
1703091015,1703091,TELUK ANGGUNG
1703091016,1703091,TANJUNG KEMENYAN
1703091017,1703091,MUARA SANTAN
1703091019,1703091,GEMBUNG RAYA
1703091020,1703091,KINAL JAYA
1703092001,1703092,PAGAR DIN
1703092002,1703092,TANJUNG DALAM
1703092003,1703092,AIR LELANGI
1703092004,1703092,PONDOK BAKIL
1703092005,1703092,TALANG BERANTAI
1703092006,1703092,BUKIT BERLIAN
1703092007,1703092,TANJUNG HARAPAN
1703092008,1703092,TANJUNG SARI
1703092009,1703092,SP 7 BANGUN KARYA
1703092010,1703092,BUKIT  SARI
1703093001,1703093,AIR SIMPANG
1703093002,1703093,AIR SEBAYUR
1703093003,1703093,AIR SEKAMANAK
1703093004,1703093,MARGA BAKTI
1703093005,1703093,BUKIT MAKMUR
1703093006,1703093,BUKIT HARAPAN
1703093007,1703093,GUNUNG PAYUNG
1703093008,1703093,TANJUNG MUARA
1703093010,1703093,SUMBER MULYA
1703093011,1703093,BUMI HARJO
1703100001,1703100,AIR PETAI
1703100002,1703100,KARANG PULAU
1703100003,1703100,KARANG TENGAH
1703100004,1703100,AIR MURING
1703100005,1703100,PASAR BARU KOTA BANI
1703100006,1703100,PASAR SEBELAT
1703100007,1703100,TALANG ARAH
1703100008,1703100,CIPTA MULYA
1703100009,1703100,AIR PANDAN
1703101001,1703101,SUKA NEGARA
1703101002,1703101,KARYA JAYA
1703101003,1703101,KARYA BAKTI
1703101004,1703101,SUKA MEDAN
1703101005,1703101,SUKA MERINDU
1703101006,1703101,SUKA MAJU
1703101007,1703101,SUKA BARU
1703101008,1703101,KARYA PELITA
1703101009,1703101,SUKA MAKMUR
1703101010,1703101,AIR PUTIH
1704010001,1704010,TANJUNG BETUAH
1704010003,1704010,GEDUNG MENUNG
1704010004,1704010,ULAK PANDAN
1704010005,1704010,MERPAS
1704010006,1704010,AIR PALAWAN
1704010007,1704010,MUARA DUA
1704010008,1704010,BUKIT INDAH
1704010009,1704010,SUKU TIGA
1704010010,1704010,TEBING RAMBUTAN
1704010011,1704010,BATU LUNGUN
1704010012,1704010,SUMBER HARAPAN
1704010013,1704010,SUKA JAYA
1704010014,1704010,PASAR BARU
1704010015,1704010,TRI JAYA
1704010016,1704010,AIR BATANG
1704010017,1704010,SINAR BANTEN
1704010018,1704010,PASAR JUMAT
1704020001,1704020,PARDA SUKA
1704020002,1704020,AIR LONG
1704020003,1704020,LINAU
1704020004,1704020,WAY HAWANG
1704020005,1704020,TANJUNG BARU
1704020006,1704020,PENYANDINGAN
1704020007,1704020,TANJUNG AUR
1704020008,1704020,KEDATARAN
1704020009,1704020,TANJUNG GANTI
1704020011,1704020,BENTENG HARAPAN
1704020012,1704020,SUKA MENANTI
1704020013,1704020,SINAR MULYA
1704020014,1704020,BAKAL MAKMUR
1704020015,1704020,MUARA JAYA
1704020016,1704020,TANJUNG AGUNG
1704020017,1704020,ARGA MULIA
1704020018,1704020,AIR JELATANG
1704020020,1704020,SUMBER HARAPAN
1704020021,1704020,TANJUNG BERINGIN
1704030012,1704030,SEKUNYIT
1704030013,1704030,SUKA BANDUNG
1704030014,1704030,AIR DINGIN
1704030015,1704030,PASAR BARU
1704030016,1704030,JEMBATAN DUA
1704030017,1704030,GEDUNG SAKO
1704030018,1704030,BANDAR
1704030019,1704030,PASAR LAMA
1704030020,1704030,TANJUNG BESAR
1704030035,1704030,PENGUBAIAN
1704030036,1704030,PAHLAWAN RATU
1704030037,1704030,PASAR SAUH
1704030038,1704030,PADANG PETRON
1704030039,1704030,KEPALA PASAR
1704030040,1704030,SAWAH JANGKUNG
1704030041,1704030,SELASIH
1704030042,1704030,PADANG GENTENG
1704030043,1704030,GEDUNG SAKO II
1704030044,1704030,SINAR PAGI
1704031001,1704031,SUKA BANJAR
1704031002,1704031,TANJUNG BUNGA
1704031003,1704031,TANJUNG AGUNG
1704031004,1704031,BABAT
1704031005,1704031,CUCUPAN
1704031006,1704031,KEPAHYANG
1704031007,1704031,TANJUNG DALAM
1704031008,1704031,PAGAR DEWA
1704031009,1704031,MUARA TETAP
1704031010,1704031,KASUK BARU
1704031011,1704031,SUKA RAJA
1704031012,1704031,PADANG BINJAI
1704040007,1704040,PADANG BARU
1704040008,1704040,TANJUNG PANDAN
1704040009,1704040,TANJUNG IMAN
1704040010,1704040,PENYANDINGAN
1704040011,1704040,KEMANG MANIS
1704040012,1704040,PADANG HANGAT
1704040013,1704040,PAJAR BULAN
1704040014,1704040,SUKA RAMI
1704040015,1704040,SINAR JAYA
1704041001,1704041,BENUA RATU
1704041002,1704041,TUGUK
1704041003,1704041,UMBUL
1704041004,1704041,TANJUNG BERINGIN
1704041005,1704041,DURIAN BESAR
1704041006,1704041,GANDA SULI
1704041007,1704041,PADANG JATI
1704041008,1704041,CAHAYA NEGERI
1704041009,1704041,BANGUN JIWA
1704041010,1704041,KEPAHYANG
1704041011,1704041,PULAU PANGGUNG
1704041012,1704041,SERDANG INDAH
1704042001,1704042,BUKIT MAKMUR
1704042002,1704042,ULAK BANDUNG
1704042003,1704042,SUMBER MAKMUR
1704042004,1704042,TRI TUNGGAL BHAKTI
1704042005,1704042,MUARA SAHUNG
1704042006,1704042,ULAK LEBAR
1704042007,1704042,CINTA MAKMUR
1704050010,1704050,GEDUNG WANI
1704050011,1704050,GERAMAT
1704050012,1704050,PENANDINGAN
1704050013,1704050,TANJUNG ALAM
1704050014,1704050,TANJUNG BARU
1704050015,1704050,PENGURUNG
1704050016,1704050,PINANG JAWA I
1704050017,1704050,GUNUNG TERANG
1704050018,1704050,TALANG PADANG
1704050019,1704050,GUNUNG MEGANG
1704050020,1704050,JAWI
1704050021,1704050,TALANG BERANGIN
1704050023,1704050,PINANG JAWA II
1704050024,1704050,PAPAHAN
1704051001,1704051,NUSUK
1704051002,1704051,TANJUNG HARAPAN
1704051003,1704051,AWAT MATA
1704051004,1704051,SUKA MERINDU
1704051005,1704051,MENTIRING I
1704051006,1704051,LUBUK GUNG
1704051007,1704051,CAHAYA BATHIN
1704051008,1704051,GUNUNG TIGA I
1704051009,1704051,KARANG DAPO
1704051010,1704051,BUNGA MELUR
1704051012,1704051,GUNUNG TIGA II
1704051013,1704051,PADANG PANJANG
1704051015,1704051,MENTIRING II
1704060001,1704060,BERIANG TINGGI
1704060002,1704060,TANJUNG BULAN
1704060003,1704060,PADANG LEBAN
1704060004,1704060,TINGGI ARI
1704060005,1704060,TANJUNG AUR I
1704060006,1704060,AUR RINGIT
1704060007,1704060,TANJUNG KEMUNING I
1704060008,1704060,SELIKA I
1704060009,1704060,TANJUNG IMAN I
1704060010,1704060,PELAJARAN I
1704060011,1704060,SULAUWANGI
1704060012,1704060,PADANG KEDONDONG
1704060013,1704060,SELIKA II
1704060014,1704060,PELAJARAN II
1704060015,1704060,PADANG TINGGI
1704060017,1704060,TANJUNG KEMUNING II
1704060018,1704060,TANJUNG KEMUNING III
1704060020,1704060,TANJUNG AUR II
1704060022,1704060,TANJUNG IMAN II
1704060023,1704060,SELIKA III
1704061001,1704061,PAGAR DEWA
1704061002,1704061,TALANG TAIS
1704061003,1704061,PENANTIAN
1704061004,1704061,SIRING AGUNG
1704061005,1704061,DARAT SAWAH
1704061006,1704061,SUKARAMI I
1704061007,1704061,RIGANGAN I
1704061008,1704061,RIGANGAN II
1704061009,1704061,RIGANGAN III
1704061010,1704061,TANJUNG GANTI I
1704061011,1704061,TANJUNG GANTI II
1704061012,1704061,TALANG MARAP
1704061014,1704061,SUKARAMI II
1704070027,1704070,PADANG MANIS
1704070028,1704070,GUNUNG AGUNG
1704070029,1704070,BANDU AGUNG
1704070031,1704070,SIMPANG TIGA
1704070032,1704070,GURU AGUNG I
1704070034,1704070,TANJUNG BETUNG I
1704070040,1704070,PANCUR NEGARA
1704070041,1704070,PERUGAIAN
1704070042,1704070,COKO ENAU
1704070043,1704070,TANJUNG BETUNG II
1704070045,1704070,GURU AGUNG II
1704071001,1704071,GUNUNG KAYA
1704071002,1704071,ULAK AGUNG
1704071003,1704071,AIR KERING I
1704071004,1704071,TALANG PADANG
1704071005,1704071,TALANG JAWI I
1704071006,1704071,TALANG JAWI II
1704071007,1704071,TALANG BESAR
1704071008,1704071,PULAU PANGGUNG
1704071010,1704071,AIR KERING II
1704072001,1704072,DATAR LEBAR I
1704072002,1704072,TANJUNG BUNIAN
1704072003,1704072,SINAR BULAN
1704072004,1704072,SUKA NANTI
1704072005,1704072,LAWANG AGUNG
1704072006,1704072,TANJUNG KURUNG
1704072007,1704072,SENAK
1704072009,1704072,DATAR LEBAR II
1704072010,1704072,AUR GADING
1704073001,1704073,PAGAR GUNUNG
1704073002,1704073,COKOH BETUNG
1704073003,1704073,PAGAR ALAM
1704073004,1704073,MANAU SEMBILAN I
1704073005,1704073,MANAU SEMBILAN II
1704073006,1704073,BUNGIN TAMBUN I
1704073007,1704073,BUNGIN TAMBUN II
1704073008,1704073,BUNGIN TAMBUN III
1704073009,1704073,NAGA RANTAI
1704073010,1704073,MARGO MULYO
1704073011,1704073,JATI MULYO
1705010001,1705010,TEDUNAN
1705010002,1705010,KEMBANG MUMPO
1705010003,1705010,KETAPANG BARU
1705010004,1705010,PADANG BAKUNG
1705010005,1705010,TALANG ALAI
1705010006,1705010,JAMBAT AKAR
1705010007,1705010,KARANG ANYAR
1705010008,1705010,UJUNG PADANG
1705010009,1705010,SENDAWAR
1705010010,1705010,GELOMBANG
1705010011,1705010,LUBUK BETUNG
1705010012,1705010,PADANG PERI
1705010013,1705010,MARAS TENGAH
1705010014,1705010,GUNUNG KEMBANG
1705010015,1705010,GUNUNG BANTAN
1705010016,1705010,GENTING JUAR
1705010017,1705010,PADANG KELAPO
1705010018,1705010,TALANG BERINGIN
1705010019,1705010,MUARA MARAS
1705010020,1705010,PEMATANG RIDING
1705010021,1705010,MUARA TIMPUT
1705010022,1705010,SERIAN BANDUNG
1705010023,1705010,TALANG KEMANG
1705010024,1705010,RIMBO BESAR
1705010025,1705010,KARANG DAPO
1705010026,1705010,MARAS BANTAN
1705020001,1705020,MARAS JAUH
1705020002,1705020,TEBAT GUNUNG
1705020003,1705020,PADANG SERUNAIAN
1705020004,1705020,GUNUNG MESIR
1705020005,1705020,PETAI KAYU
1705020006,1705020,NANJUNGAN
1705020007,1705020,BANDUNG AGUNG
1705020008,1705020,PINJU LAYANG
1705020009,1705020,NANTI AGUNG
1705020010,1705020,PAJAR BULAN
1705020011,1705020,RANTAU PANJANG
1705020012,1705020,TALANG DURIAN
1705020013,1705020,AIR MELANCAR
1705020014,1705020,CUGUNG LANGU
1705020015,1705020,RENAH GAJAH MATI 1
1705020016,1705020,MUARA DUA
1705020017,1705020,RENAH GAJAH MATI II
1705020018,1705020,KAYU ELANG
1705020019,1705020,NAPALAN
1705020020,1705020,MEKAR SARI MUKTI
1705020021,1705020,SUBAN
1705020022,1705020,TELATAN
1705020023,1705020,KEMANG MANIS
1705020024,1705020,GUNUNG MEGANG
1705030043,1705030,KEMBANG SERI
1705030044,1705030,LUBUK GIO
1705030045,1705030,MUARA DANAU
1705030048,1705030,DURIAN BUBUR
1705030049,1705030,MASMAMBANG
1705030050,1705030,SERAMBI GUNUNG
1705030051,1705030,AIR PAYANGAN
1705030052,1705030,BATU TUGU
1705030053,1705030,AIR TERAS
1705030054,1705030,BUNUT TINGGI
1705030055,1705030,LUBUK GADIS
1705030056,1705030,KAMPAI
1705030057,1705030,LUBUK NGANTUNGAN
1705030058,1705030,NAPAL MELINTANG
1705030059,1705030,SIMPANG TIGA PAGAR GASING
1705030060,1705030,HARAPAN MULYA
1705031001,1705031,DUSUN BARU
1705031002,1705031,PADANG BATU
1705031003,1705031,PENAGO I
1705031004,1705031,PENAGO BARU
1705031005,1705031,RAWA INDAH
1705031006,1705031,TANAH ABANG
1705031007,1705031,PENAGO II
1705031008,1705031,TALANG KABU
1705031009,1705031,TALANG PANJANG
1705031010,1705031,PADANG CEKUR
1705031011,1705031,NANTI AGUNG
1705031012,1705031,PASAR TALO
1705031013,1705031,MARGO SARI
1705031014,1705031,PALUH TERAP
1705031015,1705031,MEKAR SARI
1705032001,1705032,PERING BARU
1705032002,1705032,SUKA MERINDU
1705032003,1705032,SUKA BULAN
1705032004,1705032,TALANG PADANG
1705032005,1705032,TABA
1705032006,1705032,BAKAL DALAM
1705032007,1705032,SUNGAI PETAI
1705032008,1705032,LUBUK LAGAN
1705032009,1705032,NAPALAN
1705032010,1705032,TEBAT SIBUN
1705032011,1705032,BATU BALAI
1705033001,1705033,PAGAR
1705033002,1705033,BANYU KENCANA
1705033003,1705033,PAGAR AGUNG
1705033004,1705033,AIR KERUH
1705033005,1705033,MUARA SIMPUR
1705033006,1705033,HARGO BINANGUN
1705033007,1705033,SIMPUR IJANG
1705033008,1705033,MEKAR JAYA
1705033009,1705033,GIRI NANTO
1705033010,1705033,GIRI MULYA
1705033011,1705033,PAGAR BANYU
1705033012,1705033,TANJUNG AGUNG
1705033013,1705033,MUARA NIBUNG
1705040020,1705040,NAPAL
1705040021,1705040,TALANG DANTUK
1705040027,1705040,DUSUN BARU
1705040028,1705040,TALANG SALING
1705040029,1705040,LUBUK LINTANG
1705040030,1705040,PASAR TAIS
1705040031,1705040,LUBUK KEBUR
1705041001,1705041,TANJUNG SELUAI
1705041002,1705041,RIMBO KEDUI
1705041003,1705041,SIDO MULYO
1705041004,1705041,PADANG RAMBUN
1705041005,1705041,PASAR SELUMA
1705041006,1705041,SUKA RAMI
1705041007,1705041,TANGGA BATU
1705041008,1705041,PADANG GENTING
1705041009,1705041,SENGKUANG
1705041010,1705041,TANJUNG SERU
1705041011,1705041,TANJUNGAN
1705041012,1705041,PADANG MERBAU
1705042001,1705042,PURBOSARI
1705042002,1705042,TALANG PERAPAT
1705042003,1705042,AIR LATAK
1705042004,1705042,PAGAR AGUNG
1705042005,1705042,TALANG TINGGI
1705042006,1705042,LUNJUK
1705042007,1705042,LUBUK LAGAN
1705042008,1705042,TANJUNG AGUNG
1705042009,1705042,SENGKUANG JAYA
1705043001,1705043,TENANGAN
1705043002,1705043,RAWASARI
1705043003,1705043,TALANG SALI
1705043004,1705043,KUNDURAN
1705043005,1705043,KOTA AGUNG
1705043006,1705043,SELEBAR
1705043007,1705043,SEMBAYAT
1705043008,1705043,BUNGA MAS
1705044001,1705044,SIMPANG
1705044002,1705044,SELINGSINGAN
1705044003,1705044,PUGUK
1705044004,1705044,PANDAN
1705044005,1705044,TALANG BERINGIN
1705044006,1705044,TALANG RAMI
1705044007,1705044,LUBUK RESAM
1705044008,1705044,SEKALAK
1705044009,1705044,SINAR PAGI
1705044010,1705044,TALANG EMPAT
1705050011,1705050,SUKARAJA
1705050012,1705050,LUBUK SAHUNG
1705050014,1705050,BUKIT PENINJAUAN II
1705050015,1705050,PADANG PELAWI
1705050016,1705050,KAYU ARANG
1705050017,1705050,N I U R
1705050018,1705050,CAHAYA NEGERI
1705050019,1705050,BUKIT PENINJAUAN I
1705050020,1705050,RIAK SIABUN
1705050021,1705050,JENGGALU
1705050022,1705050,BABATAN
1705050033,1705050,SIDO SARI
1705050034,1705050,SARI MULYO
1705050035,1705050,SIDO LUHUR
1705050036,1705050,SUMBER ARUM
1705050037,1705050,RIAK SIABUN I
1705050038,1705050,PADANG KUAS
1705050039,1705050,KUTI AGUNG
1705050040,1705050,AIR KEMUNING
1705050041,1705050,AIR PETAI
1705050042,1705050,SUMBER MAKMUR
1705051001,1705051,PASAR NGALAM
1705051002,1705051,SUKASARI
1705051003,1705051,TAWANG REJO
1705051004,1705051,KUNGKAI BARU
1705051005,1705051,KEBAN AGUNG
1705051006,1705051,LAWANG AGUNG
1705051007,1705051,PADANG PELASAN
1705051008,1705051,AIR PERIUKAN
1705051009,1705051,DERMAYU
1705051010,1705051,SUKA MAJU
1705051011,1705051,TALANG BENUANG
1705051012,1705051,TALANG ALAI
1705051013,1705051,LUBUK GILANG
1705051014,1705051,TALANG SEBARIS
1705051015,1705051,LOKASI BARU
1705051016,1705051,TABA LUBUK PUDING
1705052001,1705052,TUMBUAN
1705052002,1705052,RENAH PANJANG
1705052003,1705052,GUNUNG AGUNG
1705052004,1705052,PADANG CAPO ULU
1705052005,1705052,TALANG GIRING
1705052006,1705052,TANJUNG KUAW
1705052007,1705052,DUSUN TENGAH
1705052008,1705052,TALANG KEBUN
1705052009,1705052,ARANG SAPAT
1705052010,1705052,NAPAL JUNGUR
1705052011,1705052,CAWANG
1705052012,1705052,PADANG CAPO ILIR
1705052013,1705052,SAKAIAN
1705052014,1705052,LUBUK TERENTANG
1706010016,1706010,AIR BULUH
1706010017,1706010,PULAU BARU
1706010018,1706010,SEMUNDAM
1706010019,1706010,TANJUNG JAYA
1706010020,1706010,DUSUN SIBAK
1706010021,1706010,MEDAN JAYA
1706010022,1706010,TANJUNG HARAPAN
1706010023,1706010,PASAR IPUH
1706010024,1706010,MANUNGGAL JAYA
1706010025,1706010,RETAK HILIR
1706010028,1706010,PULAI PAYUNG
1706010029,1706010,TANJUNG MEDAN
1706010030,1706010,TIRTA MULYA
1706010031,1706010,PASAR BARU
1706010032,1706010,PULAU MAKMUR
1706010033,1706010,MUNDAM MARAP
1706011001,1706011,AIR RAMI
1706011002,1706011,RAMI MULIA
1706011003,1706011,MEKAR JAYA
1706011004,1706011,DUSUN PULAU
1706011005,1706011,TALANG RIO
1706011006,1706011,ARGA JAYA
1706011007,1706011,IPUH II/CE SP IV /MAKMUR JAYA
1706011008,1706011,MARGA MULIA
1706011009,1706011,BUKIT HARAPAN
1706011010,1706011,TIRTA KENCANA
1706011011,1706011,BUKIT MULYA
1706011012,1706011,CINTA ASIH
1706012001,1706012,SEMAMBANG MAKMUR
1706012002,1706012,GAJAH MAKMUR
1706012003,1706012,LUBUK TALANG
1706012004,1706012,SERAMI BARU
1706012005,1706012,TALANG ARAH
1706012006,1706012,TALANG BARU
1706012007,1706012,AIR MERAH
1706012008,1706012,UPT LUBUK TALANG
1706020005,1706020,AIR HITAM
1706020006,1706020,DUSUN TUNGGANG
1706020007,1706020,AIR BERAU
1706020008,1706020,PONDOK SUGUH
1706020010,1706020,AIR BIKUK
1706020011,1706020,SINAR LAUT
1706020013,1706020,LUBUK BENTO
1706020014,1706020,PONDOK KANDANG
1706020022,1706020,BUMI MEKAR JAYA
1706020023,1706020,KARYA MULYA
1706020024,1706020,TELUK BAKUNG
1706021001,1706021,PADANG GADING
1706021002,1706021,RETAK MUDIK
1706021003,1706021,MEKAR SARI
1706021004,1706021,GAJAH MATI
1706021005,1706021,SUMBER MAKMUR
1706021006,1706021,TALANG GADING
1706021007,1706021,SIDODADI
1706021008,1706021,GADING JAYA
1706021009,1706021,BANJAR SARI
1706022001,1706022,PASAR BANTAL
1706022002,1706022,TERAMANG JAYA
1706022003,1706022,NENGGALO
1706022004,1706022,PONDOK BARU
1706022005,1706022,BUNGA TANJUNG
1706022006,1706022,SIDO MAKMUR
1706022007,1706022,LUBUK SELANDAK
1706022008,1706022,BANDAR JAYA
1706022009,1706022,MANDI ANGIN JAYA
1706022010,1706022,NELAN INDAH
1706022011,1706022,PERNYAH
1706022012,1706022,BATU EJUNG
1706022013,1706022,BRANGAN MULYA
1706030012,1706030,TERAS TERUNJAM
1706030013,1706030,SETIA BUDI
1706030014,1706030,PONDOK KOPI
1706030015,1706030,TUNGGAL JAYA
1706030022,1706030,MEKAR JAYA
1706030023,1706030,KARANG JAYA
1706030024,1706030,TERUNTUNG
1706030025,1706030,TELANG KUNING
1706031001,1706031,BUMI MULYA
1706031002,1706031,PENARIK
1706031003,1706031,LUBUK MUKTI
1706031004,1706031,SUKA MAJU
1706031005,1706031,BUKIT MAKMUR
1706031006,1706031,SUMBER MULYA
1706031007,1706031,WONOSOBO
1706031008,1706031,MEKAR MULYA
1706031009,1706031,SIDO MULYO
1706031010,1706031,MARGA MUKTI
1706031011,1706031,SIDODADI
1706031012,1706031,MAJU MAKMUR
1706031013,1706031,SENDANG MULYO
1706031014,1706031,MARGA MULYA
1706032001,1706032,SUNGAI JERINJING
1706032002,1706032,PONDOK BARU
1706032003,1706032,SUNGAI IPUH
1706032004,1706032,SUNGAI GADING
1706032005,1706032,SURIAN BUNGKAL
1706032006,1706032,LUBUK SAHUNG
1706032007,1706032,LUBUK BANGKO
1706032008,1706032,TALANG BUAI
1706032009,1706032,AUR CINA
1706032010,1706032,SUNGAI IPUH SATU
1706032011,1706032,SUNGAI IPUH DUA
1706032012,1706032,TALANG MEDAN
1706040005,1706040,TANAH REKAH
1706040006,1706040,PASAR MUKOMUKO
1706040007,1706040,UJUNG PADANG
1706040008,1706040,PONDOK BATU
1706040009,1706040,SELAGAN JAYA
1706040014,1706040,PASAR SEBELAH
1706040033,1706040,KOTO JAYA
1706040034,1706040,BANDAR RATU
1706040035,1706040,TANAH HARAPAN
1706041001,1706041,AIR DIKIT
1706041002,1706041,PONDOK LUNANG
1706041003,1706041,DUSUN BARU V KOTO
1706041004,1706041,SARI BULAN
1706041005,1706041,SARI MAKMUR
1706041006,1706041,SUMBER SARI
1706041007,1706041,AIR KASAI
1706042001,1706042,RAWA MULYA
1706042002,1706042,DUSUN BARU PELOKAN
1706042003,1706042,LUBUK SANAI
1706042004,1706042,PAUH TERENJAH
1706042005,1706042,TANJUNG MULYA
1706042006,1706042,RAWA BANGUN
1706042007,1706042,LUBUK SANAI II
1706042008,1706042,LUBUK SANAI III
1706050001,1706050,SUMBER MAKMUR
1706050002,1706050,TANJUNG ALAI
1706050003,1706050,LUBUK GEDANG
1706050010,1706050,ARAH TIGA
1706050011,1706050,LUBUK PINANG
1706050012,1706050,SUKA PINDAH
1706050018,1706050,RANAH KARYA
1706051001,1706051,AGUNG JAYA
1706051002,1706051,PONDOK MAKMUR
1706051003,1706051,MANJUNTO JAYA
1706051004,1706051,TIRTA MAKMUR
1706051005,1706051,TIRTA MULYA
1706051006,1706051,KOTA PRAJA
1706051007,1706051,SINAR JAYA
1706051008,1706051,SIDO MAKMUR
1706052001,1706052,PONDOK TENGAH
1706052002,1706052,SUNGAI LINTANG
1706052003,1706052,TALANG PETAI
1706052004,1706052,LALANG LUAS
1706052005,1706052,RASNO
1706052006,1706052,PONDOK PANJANG
1706052007,1706052,TALANG SAKTI
1706052008,1706052,TALANG SEPAKAT
1706052009,1706052,LUBUK CABAU
1706052010,1706052,SUNGAI RENGAS
1707010001,1707010,BIOA SENGOK
1707010002,1707010,RIMBO PENGADANG
1707010003,1707010,TELUK DIEN
1707010009,1707010,TALANG RATU
1707010011,1707010,TIK KUTO
1707010012,1707010,BAJOK
1707011001,1707011,TOPOS
1707011002,1707011,TIK SIRONG
1707011003,1707011,SUKA NEGERI
1707011004,1707011,AJAI SIANG
1707011005,1707011,TALANG DONOK
1707011006,1707011,TALANG DONOK I
1707011007,1707011,TALANG BARU I
1707011008,1707011,TALANG BARU II
1707020010,1707020,SUKA SARI
1707020011,1707020,KUTAI DONOK
1707020012,1707020,MANGKURAJO
1707020013,1707020,T E S
1707020014,1707020,TABA ANYAR
1707020015,1707020,TURAN TIGING
1707020016,1707020,MUBAI
1707020017,1707020,TURAN LALANG
1707020026,1707020,TIK JENIAK
1707020027,1707020,MANAI BLAU
1707021001,1707021,KARANG DAPO ATAS
1707021002,1707021,BUKIT NIBUNG
1707021003,1707021,KARANG DAPO BAWAH
1707021004,1707021,PUNGGUK PEDARO
1707021005,1707021,TALANG KERINCI
1707021006,1707021,PELABUHAN TALANG LIAK
1707021007,1707021,TALANG LIAK I
1707021008,1707021,TALANG LIAK II
1707021009,1707021,BUNGIN
1707030001,1707030,SEMELAKO ATAS
1707030002,1707030,SEMELAKO I
1707030003,1707030,KARANG ANYAR
1707030004,1707030,TANJUNG BUNGAI I
1707030005,1707030,PAGAR AGUNG
1707030006,1707030,EMBONG PANJANG
1707030013,1707030,TANJUNG BUNGAI II
1707030014,1707030,SEMELAKO II
1707030015,1707030,SEMELAKO III
1707030016,1707030,DANAU LIANG
1707030017,1707030,SUKA DAMAI
1707031001,1707031,UJUNG TANJUNG I
1707031002,1707031,MUNING AGUNG
1707031003,1707031,UJUNG TANJUNG II
1707031004,1707031,UJUNG TANJUNG III
1707031005,1707031,MAGELANG BARU
1707031006,1707031,LEMEU PIT
1707031007,1707031,TABEAK KAUK
1707031008,1707031,TABEAK DIPOA
1707031009,1707031,SUKA BUMI
1707040001,1707040,TIK TEBING
1707040002,1707040,TABEAK BLAU
1707040005,1707040,BLAU
1707040006,1707040,SUKAU KAYO
1707040007,1707040,TABEAK BLAU I
1707040008,1707040,DANEU
1707041001,1707041,PADANG BANO
1707041002,1707041,SEBAYUA
1707041003,1707041,UEI
1707041004,1707041,KEMBUNG
1707041005,1707041,LIMES
1707042001,1707042,TANJUNG AGUNG
1707042002,1707042,SUKAU DATANG
1707042003,1707042,SUKAU DATANG I
1707042004,1707042,GUNUNG ALAM
1707042005,1707042,TABEAK BLAU II
1707042006,1707042,KOTA BARU SANTAN
1707042007,1707042,TIK TELEU
1707042008,1707042,PELABAI
1707050013,1707050,TALANG ULU
1707050014,1707050,KAMPUNG MUARA AMAN
1707050028,1707050,NANGAI AMEN
1707050029,1707050,PASAR MUARA AMAN
1707050030,1707050,KAMPUNG DALAM
1707050031,1707050,GANDUNG
1707050032,1707050,LOKASARI
1707050033,1707050,LEBONG TAMBANG
1707050034,1707050,KAMPUNG JAWA
1707050035,1707050,LADANG PALEMBANG
1707050036,1707050,TUNGGANG
1707050043,1707050,GANDUNG BARU
1707051001,1707051,NANGAI TAYAU
1707051002,1707051,NANGAI TAYAU I
1707051003,1707051,PYANG MBIK
1707051004,1707051,SUKAU MERGO
1707051005,1707051,SUKAU RAJO
1707051006,1707051,TALANG BUNUT
1707051007,1707051,SELEBAR JAYA
1707051008,1707051,GARUT
1707051009,1707051,AMEN
1707051010,1707051,SUNGAI GERONG
1707052001,1707052,EMBONG
1707052002,1707052,EMBONG SATU
1707052003,1707052,KOTA BARU
1707052004,1707052,KOTA AGUNG
1707052005,1707052,LEMEU
1707052006,1707052,PANGKALAN
1707052007,1707052,TANGUA
1707053001,1707053,KETENONG SATU
1707053002,1707053,KETENONG DUA
1707053003,1707053,KETENONG JAYA
1707053004,1707053,TAMBANG SAWEAK
1707053005,1707053,AIR KOPRAS
1707053006,1707053,BIOA PUTIAK
1707053007,1707053,SEBELET
1707053008,1707053,SUNGAI LISAI
1708010001,1708010,LIMBUR BARU
1708010002,1708010,BATU KALUNG
1708010003,1708010,SOSOKAN BARU
1708010004,1708010,SOSOKAN TABA
1708010005,1708010,BATU BANDUNG
1708010006,1708010,TALANG TIGE
1708010007,1708010,RENAH KURUNG
1708010008,1708010,WARUNG POJOK
1708020001,1708020,KEMBANG SERI
1708020002,1708020,PAGAR AGUNG
1708020003,1708020,TALANG PITO
1708020004,1708020,TALANG SAWAH
1708020005,1708020,KOTA AGUNG
1708020006,1708020,EMBONG IJUK
1708020007,1708020,LIMBUR LAMA
1708020008,1708020,CINTO MANDI
1708020009,1708020,KEBAN AGUNG
1708020010,1708020,GUNUNG AGUNG
1708020011,1708020,EMBONG SIDO
1708020012,1708020,TABA BARU
1708020013,1708020,BATU BELARIK
1708020014,1708020,BUKIT MENYAN
1708020015,1708020,SOSOKAN CINTO MANDI
1708020016,1708020,MUARA LANGKAP
1708020017,1708020,AIR RAMAN
1708020018,1708020,LANGGAR JAYA
1708020019,1708020,CINTA MANDI BARU
1708030001,1708030,BENUANG GALING
1708030002,1708030,AIR SELIMANG
1708030003,1708030,TEBAT LAUT
1708030004,1708030,TABA PADANG
1708030005,1708030,LUBUK SAHUNG
1708030006,1708030,TEMDAK
1708030007,1708030,KANDANG
1708030008,1708030,CIREBON BARU
1708030009,1708030,TALANG GELOMPOK
1708030010,1708030,AIR PESI
1708030011,1708030,TALANG BABATAN
1708030012,1708030,BAYUNG
1708030013,1708030,SUNGAI JERNIH
1708040001,1708040,TERTIK
1708040002,1708040,TABA AIR PAUH
1708040003,1708040,PENANJUNG PANJANG
1708040004,1708040,PERADUAN BINJAI
1708040005,1708040,TALANG KARET
1708040006,1708040,TEBAT KARAI
1708040007,1708040,TABA SATING
1708040008,1708040,NANTI AGUNG
1708040009,1708040,KARANG TENGAH
1708040010,1708040,TAPAK GEDUNG
1708040011,1708040,TEBING PENYAMUN
1708040012,1708040,SINAR GUNUNG
1708040013,1708040,TABA SALING
1708040014,1708040,PENANJUNG PANJANG ATAS
1708050001,1708050,TEBAT MONOK
1708050002,1708050,KELILIK
1708050003,1708050,IMIGRASI PERMU
1708050004,1708050,PERMU
1708050005,1708050,PASAR UJUNG
1708050006,1708050,KARANG ENDAH
1708050007,1708050,WESKUST
1708050008,1708050,KAMPUNG BOGOR
1708050009,1708050,PENSIUNAN
1708050010,1708050,PASAR KEPAHIANG
1708050011,1708050,DUSUN KEPAHIANG
1708050012,1708050,KUTO REJO
1708050013,1708050,KARANG ANYAR
1708050014,1708050,TABA TEBELET
1708050015,1708050,PELANGKIAN
1708050016,1708050,KELOBAK
1708050017,1708050,PAGAR GUNUNG
1708050018,1708050,SUKA MERINDU
1708050019,1708050,KAMPUNG PENSIUNAN
1708050020,1708050,PASAR SEJANTUNG
1708050021,1708050,PADANG LEKAT
1708050022,1708050,BOGOR BARU
1708050023,1708050,PERMU BAWAH
1708060001,1708060,SUKA SARI
1708060002,1708060,BUKIT SARI
1708060003,1708060,TANGSI DUREN
1708060004,1708060,TANGSI BARU
1708060005,1708060,PEMATANG DONOK
1708060006,1708060,BABAKAN BOGOR
1708060007,1708060,BARAT WETAN
1708060008,1708060,AIR SEMPIANG
1708060009,1708060,TUGU REJO
1708060010,1708060,BANDUNG BARU
1708060011,1708060,SIDO MAKMUR
1708060012,1708060,SUMBER SARI
1708060013,1708060,MEKAR SARI
1708060015,1708060,SIDO REJO
1708060016,1708060,BANDUNG JAYA
1708070001,1708070,DASPETAH
1708070002,1708070,UJAN MAS BAWAH
1708070003,1708070,UJAN MAS ATAS
1708070004,1708070,SURO LEMBAK
1708070005,1708070,SURO ILIR
1708070006,1708070,SURO MUNCAR
1708070007,1708070,SURO BARU
1708070008,1708070,PEKALONGAN
1708070009,1708070,PUNGGUK MERANTI
1708070010,1708070,BUMI SARI
1708070011,1708070,CUGUNG LALANG
1708070012,1708070,SURO BALI
1708070013,1708070,TANJUNG ALAM
1708070014,1708070,PUNGGUK BERINGANG
1708070015,1708070,MERANTI JAYA
1708070016,1708070,AIR HITAM
1708070017,1708070,DASPETAH II
1708080001,1708080,LUBUK PENYAMUN
1708080002,1708080,BUKIT BARISAN
1708080003,1708080,DURIAN DEPUN
1708080004,1708080,PULO GETO
1708080005,1708080,TABA MULAN
1708080006,1708080,SIMPANG KOTA BINGIN
1708080007,1708080,BATU AMPAR
1708080008,1708080,PULO GETO BARU
1709010001,1709010,AIR SEBAKUL
1709010002,1709010,BUKIT
1709010003,1709010,LAGAN BUNGIN
1709010004,1709010,TABALAGAN
1709010005,1709010,LAGAN
1709010006,1709010,PULAU PANGGUNG
1709010007,1709010,JAYAKARTA
1709010008,1709010,TENGAH PADANG
1709010009,1709010,KEMBANG SERI
1709010010,1709010,TABA PASMAH
1709010011,1709010,NAKAU
1709010012,1709010,PADANG ULAK TANJUNG
1709010013,1709010,PAGAR JATI
1709010014,1709010,JUMAT
1709010015,1709010,AIR PUTIH
1709020001,1709020,KARANG NANDING
1709020002,1709020,PENANDING
1709020003,1709020,DURIAN DEMANG
1709020004,1709020,DUSUN BARU II
1709020005,1709020,KARANG TINGGI
1709020006,1709020,TABA MUTUNG
1709020007,1709020,KANCING
1709020008,1709020,UJUNG KARANG
1709020009,1709020,TALANG EMPAT
1709020010,1709020,TABA TERUNJAM
1709020011,1709020,PADANG TAMBAK
1709020012,1709020,RENA LEBAR
1709020013,1709020,PELAJAU
1709020014,1709020,RENA SEMANEK
1709020015,1709020,GAJAH MATI
1709020016,1709020,SEMIDANG
1709020017,1709020,PAGAR GUNUNG
1709020018,1709020,PADANG SIRING
1709030001,1709030,KOTA NIUR
1709030002,1709030,TANJUNG RAMAN
1709030003,1709030,SUKARAMI
1709030004,1709030,KARANG TENGAH
1709030005,1709030,LUBUK SINI
1709030006,1709030,BAJAK I
1709030007,1709030,SURAU
1709030008,1709030,RINDU HATI
1709030009,1709030,TANJUNG HERAN
1709030010,1709030,TABA TERET
1709030011,1709030,TABA PENANJUNG
1709030012,1709030,DATAR LEBAR
1709030019,1709030,PENUM
1709030020,1709030,TABA BARU
1709031001,1709031,BAJAK II
1709031002,1709031,JAMBU
1709031003,1709031,PENEMBANG
1709031004,1709031,LUBUK UNEN
1709031005,1709031,PUNGGUK KETUPAK
1709031006,1709031,PUNGGUK BERINGIN
1709031007,1709031,KELINDANG
1709031008,1709031,ULAK LEBAR
1709031009,1709031,TABA DURIAN SEBAKUL
1709031010,1709031,TALANG AMBUNG
1709031011,1709031,LUBUK UNEN BARU
1709031012,1709031,PADANG KEDEPER
1709031013,1709031,KELINDANG ATAS
1709040008,1709040,TABA RENAH
1709040009,1709040,TEMIANG
1709040011,1709040,KERTAPATI
1709040012,1709040,PAGAR JATI
1709040014,1709040,ARGA INDAH I
1709040015,1709040,DATAR PENOKOT
1709040016,1709040,LAYANG LEKAT
1709040017,1709040,TALANG CURUP
1709040018,1709040,TUMBUK
1709040019,1709040,RENA KANDIS
1709040020,1709040,KARANG ARE
1709040021,1709040,KERTAPATI MUDIK
1709040022,1709040,KEROYA
1709040023,1709040,RENA JAYA
1709041001,1709041,LUBUK PUAR
1709041002,1709041,PUNJUNG
1709041003,1709041,BAJAK III
1709041004,1709041,KOMERING
1709041005,1709041,ARGA INDAH II
1709041006,1709041,CURUP
1709041007,1709041,KARANG PANGGUNG
1709041008,1709041,LUBUK PENDAM
1709041009,1709041,RAJAK BESI
1709041010,1709041,SUSUP
1709041011,1709041,PAGAR AGUNG
1709041012,1709041,DURIAN LEBAR
1709041013,1709041,TABA GEMANTUNG
1709041014,1709041,PUNGGUK JAYA
1709041015,1709041,PAGAR BESI
1709050001,1709050,PEKIK NYARING
1709050002,1709050,SRIKUNCORO
1709050010,1709050,PANCA MUKTI
1709050011,1709050,SRIKATON
1709050012,1709050,PASAR PEDATI
1709050013,1709050,TALANG PAUH
1709050014,1709050,SIDODADI
1709050015,1709050,TALANG BUSENG
1709050017,1709050,KEMBANG AYUN
1709050018,1709050,PAGARDEWA
1709050019,1709050,SIDOREJO
1709050020,1709050,SUNDA KELAPA
1709050021,1709050,PONDOK KELAPA
1709050022,1709050,PADANG BETUAH
1709050023,1709050,BINTANG SELATAN
1709050024,1709050,ABU SAKIM
1709050025,1709050,HARAPAN
1709051001,1709051,TANJUNG TERDANA
1709051002,1709051,PONDOK KUBANG
1709051003,1709051,ANYAR
1709051004,1709051,BATU RAJA
1709051005,1709051,TANJUNG DALAM
1709051006,1709051,TALANG TENGAH I
1709051007,1709051,LINGGAR GALING
1709051008,1709051,PAKU HAJI
1709051009,1709051,DUSUN BARU I
1709051010,1709051,HARAPAN MAKMUR
1709051011,1709051,TABA JAMBU
1709051012,1709051,MARGO MULYO
1709060011,1709060,KOTA TITIK
1709060012,1709060,ATURAN MUMPO
1709060013,1709060,SENABAH
1709060014,1709060,TALANG TENGAH II
1709060015,1709060,TANJUNG KEPAYANG
1709060016,1709060,KEBUN LEBAR
1709060017,1709060,TIAMBANG
1709060018,1709060,PEMATANG TIGA
1709060019,1709060,BATU BARIANG
1709060020,1709060,AIR KOTOK
1709060021,1709060,ATURAN MUMPO II
1709060022,1709060,GENTING DABUK
1709060023,1709060,PEMATANG TIGA LAMA
1709061001,1709061,SEKAYUN
1709061002,1709061,SEKAYUN MUDIK
1709061003,1709061,SEKAYUN ILIR
1709061004,1709061,TALANG DONOK
1709061005,1709061,TABA TENGAH
1709061006,1709061,PADANG BURNAI
1709061007,1709061,LUBUK LANGKAP
1709061008,1709061,AIR NAPAL
1709061009,1709061,GENTING
1709061010,1709061,TALANG PANJANG
1709061011,1709061,BANG HAJI
1709061012,1709061,SUNGKAI BERAYUN
1771010003,1771010,BETUNGAN
1771010004,1771010,PEKAN SABTU
1771010005,1771010,SUKA RAMI
1771010006,1771010,PAGAR DEWA
1771010007,1771010,BUMIAYU
1771010008,1771010,SUMUR DEWA
1771011001,1771011,TELUK SEPANG
1771011002,1771011,SUMBER JAYA
1771011003,1771011,KANDANG
1771011004,1771011,KANDANG MAS
1771011005,1771011,PADANG SERAI
1771011006,1771011,MUARA DUA
1771020001,1771020,SIDO MULYO
1771020005,1771020,JALAN GEDANG
1771020006,1771020,PADANG HARAPAN
1771020024,1771020,CEMPAKA PERMAI
1771020027,1771020,LINKAR BARAT
1771021001,1771021,TANAH PATAH
1771021002,1771021,KEBUN TEBENG
1771021003,1771021,SAWAH LEBAR BARU
1771021004,1771021,SAWAH LEBAR
1771021005,1771021,NUSA INDAH
1771021006,1771021,KEBUN KENANGA
1771021007,1771021,KEBUN BELER
1771021008,1771021,LEMPUING
1771022001,1771022,ANGGUT BAWAH
1771022002,1771022,PENURUNAN
1771022003,1771022,PADANG JATI
1771022004,1771022,BELAKANG PONDOK
1771022005,1771022,PENGANTUNGAN
1771022006,1771022,KEBUN DAHRI
1771022007,1771022,KEBUN GERAND
1771022008,1771022,ANGGUT ATAS
1771022009,1771022,ANGGUT DALAM
1771023001,1771023,JEMBATAN KECIL
1771023002,1771023,PANORAMA
1771023003,1771023,LINGKAR TIMUR
1771023004,1771023,TIMUR INDAH
1771023005,1771023,PADANG NANGKA
1771023006,1771023,DUSUN BESAR
1771030001,1771030,KEBUN KELING
1771030004,1771030,MALABERO
1771030005,1771030,SUMUR MELELE
1771030006,1771030,PASAR BERKAS
1771030007,1771030,PASAR BARU
1771030008,1771030,PASAR JITRA
1771030009,1771030,PASAR MELINTANG
1771030011,1771030,PONDOK BESI
1771030012,1771030,KEBUN ROS
1771030013,1771030,PINTU BATU
1771030014,1771030,TENGAH PADANG
1771030015,1771030,BAJAK
1771030016,1771030,KAMPUNG BALI
1771031001,1771031,SURABAYA
1771031002,1771031,SEMARANG
1771031003,1771031,TANJUNG JAYA
1771031004,1771031,TANJUNG AGUNG
1771031005,1771031,SUKA MERINDU
1771031006,1771031,KAMPUNG KELAWI
1771031007,1771031,PASAR BENGKULU
1771040001,1771040,BERINGIN RAYA
1771040002,1771040,RAWA MAKMUR
1771040003,1771040,KANDANG LIMUN
1771040004,1771040,PEMATANG GUBERNUR
1771040005,1771040,BENTIRING
1771040006,1771040,RAWA MAKMUR PERMAI
1771040007,1771040,BENTIRING PERMAI